16.990750 4.0
17.000250 5.0
17.009750 1.0
17.019250 6.0
17.028750 8.0
17.038250 4.0
17.047750 6.0
17.057250 9.0
17.066750 9.0
17.076250 9.0
17.085750 9.0
17.095250 3.0
17.104750 5.0
17.114250 5.0
17.123750 7.0
17.133250 7.0
17.142750 11.0
17.152250 6.0
17.161750 4.0
17.171250 9.0
17.180750 6.0
17.190250 5.0
17.199750 6.0
17.209250 7.0
17.218750 5.0
17.228250 8.0
17.237750 5.0
17.247250 8.0
17.256750 11.0
17.266250 7.0
17.275750 4.0
17.285250 11.0
17.294750 4.0
17.304250 7.0
17.313750 4.0
17.323250 3.0
17.332750 5.0
17.342250 3.0
17.351750 4.0
17.361250 5.0
17.370750 8.0
17.380250 4.0
17.389750 15.0
17.399250 11.0
17.408750 5.0
17.418250 4.0
17.427750 11.0
17.437250 8.0
17.446750 5.0
17.456250 6.0
17.465750 3.0
17.475250 4.0
17.484750 4.0
17.494250 11.0
17.503750 5.0
17.513250 4.0
17.522750 8.0
17.532250 6.0
17.541750 4.0
17.551250 3.0
17.560750 9.0
17.570250 9.0
17.579750 5.0
17.589250 5.0
17.598750 5.0
17.608250 3.0
17.617750 4.0
17.627250 11.0
17.636750 5.0
17.646250 5.0
17.655750 7.0
17.665250 11.0
17.674750 8.0
17.684250 4.0
17.693750 8.0
17.703250 8.0
17.712750 6.0
17.722250 4.0
17.731750 4.0
17.741250 9.0
17.750750 8.0
17.760250 6.0
17.769750 4.0
17.779250 9.0
17.788750 5.0
17.798250 6.0
17.807750 8.0
17.817250 5.0
17.826750 8.0
17.836250 3.0
17.845750 8.0
17.855250 8.0
17.864750 8.0
17.874250 8.0
17.883750 4.0
17.893250 6.0
17.902750 8.0
17.912250 3.0
17.921750 8.0
17.931250 0.0
17.940750 7.0
17.950250 7.0
17.959750 6.0
17.969250 4.0
17.978750 3.0
17.988250 3.0
17.997750 7.0
18.007250 4.0
18.016750 4.0
18.026250 6.0
18.035750 3.0
18.045250 3.0
18.054750 5.0
18.064250 10.0
18.073750 1.0
18.083250 5.0
18.092750 9.0
18.102250 10.0
18.111750 5.0
18.121250 5.0
18.130750 6.0
18.140250 3.0
18.149750 3.0
18.159250 4.0
18.168750 5.0
18.178250 2.0
18.187750 2.0
18.197250 6.0
18.206750 5.0
18.216250 7.0
18.225750 2.0
18.235250 3.0
18.244750 3.0
18.254250 8.0
18.263750 2.0
18.273250 5.0
18.282750 7.0
18.292250 4.0
18.301750 4.0
18.311250 6.0
18.320750 4.0
18.330250 6.0
18.339750 9.0
18.349250 5.0
18.358750 5.0
18.368250 6.0
18.377750 9.0
18.387250 2.0
18.396750 9.0
18.406250 8.0
18.415750 3.0
18.425250 8.0
18.434750 8.0
18.444250 5.0
18.453750 9.0
18.463250 9.0
18.472750 7.0
18.482250 1.0
18.491750 10.0
18.501250 5.0
18.510750 9.0
18.520250 8.0
18.529750 6.0
18.539250 7.0
18.548750 4.0
18.558250 5.0
18.567750 9.0
18.577250 12.0
18.586750 6.0
18.596250 10.0
18.605750 9.0
18.615250 10.0
18.624750 5.0
18.634250 8.0
18.643750 7.0
18.653250 14.0
18.662750 10.0
18.672250 16.0
18.681750 20.0
18.691250 33.0
18.700750 48.0
18.710250 75.0
18.719750 106.0
18.729250 176.0
18.738750 206.0
18.748250 237.0
18.757750 300.0
18.767250 324.0
18.776750 345.0
18.786250 383.0
18.795750 378.0
18.805250 413.0
18.814750 432.0
18.824250 426.0
18.833750 438.0
18.843250 447.0
18.852750 482.0
18.862250 448.0
18.871750 456.0
18.881250 434.0
18.890750 464.0
18.900250 479.0
18.909750 425.0
18.919250 415.0
18.928750 433.0
18.938250 471.0
18.947750 464.0
18.957250 456.0
18.966750 482.0
18.976250 499.0
18.985750 469.0
18.995250 437.0
19.004750 523.0
19.014250 497.0
19.023750 495.0
19.033250 463.0
19.042750 463.0
19.052250 480.0
19.061750 444.0
19.071250 479.0
19.080750 467.0
19.090250 468.0
19.099750 497.0
19.109250 469.0
19.118750 462.0
19.128250 499.0
19.137750 428.0
19.147250 463.0
19.156750 460.0
19.166250 500.0
19.175750 485.0
19.185250 480.0
19.194750 435.0
19.204250 435.0
19.213750 484.0
19.223250 460.0
19.232750 448.0
19.242250 429.0
19.251750 371.0
19.261250 416.0
19.270750 411.0
19.280250 396.0
19.289750 390.0
19.299250 408.0
19.308750 431.0
19.318250 375.0
19.327750 399.0
19.337250 399.0
19.346750 355.0
19.356250 385.0
19.365750 343.0
19.375250 370.0
19.384750 345.0
19.394250 336.0
19.403750 297.0
19.413250 345.0
19.422750 311.0
19.432250 314.0
19.441750 306.0
19.451250 316.0
19.460750 297.0
19.470250 280.0
19.479750 287.0
19.489250 275.0
19.498750 310.0
19.508250 294.0
19.517750 252.0
19.527250 249.0
19.536750 275.0
19.546250 238.0
19.555750 231.0
19.565250 266.0
19.574750 250.0
19.584250 267.0
19.593750 272.0
19.603250 263.0
19.612750 268.0
19.622250 275.0
19.631750 267.0
19.641250 273.0
19.650750 282.0
19.660250 276.0
19.669750 291.0
19.679250 289.0
19.688750 275.0
19.698250 334.0
19.707750 362.0
19.717250 333.0
19.726750 351.0
19.736250 392.0
19.745750 363.0
19.755250 395.0
19.764750 453.0
19.774250 462.0
19.783750 485.0
19.793250 497.0
19.802750 535.0
19.812250 508.0
19.821750 546.0
19.831250 540.0
19.840750 509.0
19.850250 593.0
19.859750 573.0
19.869250 586.0
19.878750 616.0
19.888250 633.0
19.897750 636.0
19.907250 570.0
19.916750 583.0
19.926250 625.0
19.935750 597.0
19.945250 638.0
19.954750 612.0
19.964250 650.0
19.973750 626.0
19.983250 633.0
19.992750 652.0
20.002250 636.0
20.011750 639.0
20.021250 658.0
20.030750 617.0
20.040250 608.0
20.049750 608.0
20.059250 626.0
20.068750 617.0
20.078250 653.0
20.087750 603.0
20.097250 614.0
20.106750 591.0
20.116250 646.0
20.125750 619.0
20.135250 559.0
20.144750 501.0
20.154250 538.0
20.163750 526.0
20.173250 504.0
20.182750 543.0
20.192250 515.0
20.201750 541.0
20.211250 469.0
20.220750 487.0
20.230250 494.0
20.239750 433.0
20.249250 462.0
20.258750 455.0
20.268250 426.0
20.277750 382.0
20.287250 424.0
20.296750 389.0
20.306250 425.0
20.315750 403.0
20.325250 350.0
20.334750 378.0
20.344250 354.0
20.353750 327.0
20.363250 280.0
20.372750 298.0
20.382250 322.0
20.391750 315.0
20.401250 294.0
20.410750 263.0
20.420250 249.0
20.429750 253.0
20.439250 226.0
20.448750 221.0
20.458250 212.0
20.467750 237.0
20.477250 204.0
20.486750 200.0
20.496250 197.0
20.505750 180.0
20.515250 153.0
20.524750 164.0
20.534250 146.0
20.543750 164.0
20.553250 141.0
20.562750 99.0
20.572250 124.0
20.581750 130.0
20.591250 106.0
20.600750 102.0
20.610250 89.0
20.619750 73.0
20.629250 98.0
20.638750 83.0
20.648250 69.0
20.657750 69.0
20.667250 68.0
20.676750 55.0
20.686250 71.0
20.695750 59.0
20.705250 64.0
20.714750 48.0
20.724250 41.0
20.733750 40.0
20.743250 39.0
20.752750 40.0
20.762250 29.0
20.771750 35.0
20.781250 33.0
20.790750 28.0
20.800250 30.0
20.809750 21.0
20.819250 21.0
20.828750 28.0
20.838250 15.0
20.847750 26.0
20.857250 24.0
20.866750 18.0
20.876250 17.0
20.885750 24.0
20.895250 17.0
20.904750 18.0
20.914250 18.0
20.923750 22.0
20.933250 15.0
20.942750 16.0
20.952250 15.0
20.961750 15.0
20.971250 16.0
20.980750 10.0
20.990250 16.0
20.999750 14.0
21.009250 15.0
21.018750 16.0
21.028250 11.0
21.037750 6.0
21.047250 7.0
21.056750 10.0
21.066250 13.0
21.075750 9.0
21.085250 4.0
21.094750 8.0
21.104250 7.0
21.113750 10.0
21.123250 13.0
21.132750 7.0
21.142250 14.0
21.151750 7.0
21.161250 10.0
21.170750 8.0
21.180250 5.0
21.189750 2.0
21.199250 9.0
21.208750 13.0
21.218250 10.0
21.227750 9.0
21.237250 4.0
21.246750 6.0
21.256250 6.0
21.265750 8.0
21.275250 9.0
21.284750 7.0
21.294250 9.0
21.303750 1.0
21.313250 3.0
21.322750 4.0
21.332250 6.0
21.341750 7.0
21.351250 5.0
21.360750 5.0
21.370250 3.0
21.379750 0.0
21.389250 5.0
21.398750 4.0
21.408250 9.0
21.417750 0.0
21.427250 9.0
21.436750 7.0
21.446250 4.0
21.455750 2.0
21.465250 4.0
21.474750 1.0
21.484250 5.0
21.493750 6.0
21.503250 5.0
21.512750 4.0
21.522250 4.0
21.531750 3.0
21.541250 6.0
21.550750 6.0
21.560250 1.0
21.569750 5.0
21.579250 3.0
21.588750 2.0
21.598250 8.0
21.607750 6.0
21.617250 6.0
21.626750 2.0
21.636250 4.0
21.645750 6.0
21.655250 6.0
21.664750 6.0
21.674250 4.0
21.683750 5.0
21.693250 4.0
21.702750 3.0
21.712250 0.0
21.721750 0.0
21.731250 4.0
21.740750 9.0
21.750250 9.0
21.759750 9.0
21.769250 10.0
21.778750 5.0
21.788250 3.0
21.797750 4.0
21.807250 13.0
21.816750 3.0
21.826250 8.0
21.835750 13.0
21.845250 24.0
21.854750 14.0
21.864250 27.0
21.873750 20.0
21.883250 23.0
21.892750 32.0
21.902250 42.0
21.911750 46.0
21.921250 42.0
21.930750 30.0
21.940250 33.0
21.949750 42.0
21.959250 34.0
21.968750 53.0
21.978250 28.0
21.987750 45.0
21.997250 31.0
22.006750 40.0
22.016250 35.0
22.025750 35.0
22.035250 36.0
22.044750 32.0
22.054250 40.0
22.063750 27.0
22.073250 23.0
22.082750 36.0
22.092250 34.0
22.101750 35.0
22.111250 37.0
22.120750 35.0
22.130250 51.0
22.139750 30.0
22.149250 29.0
22.158750 35.0
22.168250 25.0
22.177750 34.0
22.187250 41.0
22.196750 36.0
22.206250 26.0
22.215750 36.0
22.225250 26.0
22.234750 19.0
22.244250 34.0
22.253750 35.0
22.263250 24.0
22.272750 40.0
22.282250 34.0
22.291750 43.0
22.301250 28.0
22.310750 32.0
22.320250 31.0
22.329750 25.0
22.339250 34.0
22.348750 25.0
22.358250 34.0
22.367750 29.0
22.377250 28.0
22.386750 36.0
22.396250 23.0
22.405750 23.0
22.415250 27.0
22.424750 31.0
22.434250 26.0
22.443750 24.0
22.453250 18.0
22.462750 20.0
22.472250 12.0
22.481750 18.0
22.491250 30.0
22.500750 27.0
22.510250 30.0
22.519750 18.0
22.529250 21.0
22.538750 27.0
22.548250 27.0
22.557750 30.0
22.567250 22.0
22.576750 16.0
22.586250 17.0
22.595750 21.0
22.605250 13.0
22.614750 13.0
22.624250 24.0
22.633750 12.0
22.643250 18.0
22.652750 12.0
22.662250 10.0
22.671750 20.0
22.681250 16.0
22.690750 10.0
22.700250 11.0
22.709750 10.0
22.719250 7.0
22.728750 10.0
22.738250 13.0
22.747750 6.0
22.757250 5.0
22.766750 5.0
22.776250 7.0
22.785750 3.0
22.795250 9.0
22.804750 5.0
22.814250 8.0
22.823750 6.0
22.833250 2.0
22.842750 3.0
22.852250 5.0
22.861750 2.0
22.871250 2.0
22.880750 4.0
22.890250 3.0
22.899750 3.0
22.909250 3.0
22.918750 3.0
22.928250 1.0
22.937750 2.0
22.947250 2.0
22.956750 1.0
22.966250 6.0
22.975750 6.0
