17.904750 2.0
17.914750 5.0
17.924750 3.0
17.934750 0.0
17.944750 8.0
17.954750 2.0
17.964750 1.0
17.974750 7.0
17.984750 4.0
17.994750 1.0
18.004750 2.0
18.014750 1.0
18.024750 0.0
18.034750 0.0
18.044750 1.0
18.054750 3.0
18.064750 3.0
18.074750 1.0
18.084750 2.0
18.094750 4.0
18.104750 4.0
18.114750 4.0
18.124750 4.0
18.134750 3.0
18.144750 4.0
18.154750 3.0
18.164750 6.0
18.174750 1.0
18.184750 2.0
18.194750 3.0
18.204750 1.0
18.214750 3.0
18.224750 4.0
18.234750 8.0
18.244750 4.0
18.254750 2.0
18.264750 5.0
18.274750 3.0
18.284750 7.0
18.294750 9.0
18.304750 6.0
18.314750 3.0
18.324750 4.0
18.334750 3.0
18.344750 3.0
18.354750 10.0
18.364750 8.0
18.374750 20.0
18.384750 30.0
18.394750 33.0
18.404750 54.0
18.414750 59.0
18.424750 69.0
18.434750 71.0
18.444750 83.0
18.454750 102.0
18.464750 128.0
18.474750 108.0
18.484750 114.0
18.494750 120.0
18.504750 124.0
18.514750 125.0
18.524750 124.0
18.534750 104.0
18.544750 140.0
18.554750 133.0
18.564750 129.0
18.574750 141.0
18.584750 127.0
18.594750 114.0
18.604750 142.0
18.614750 151.0
18.624750 144.0
18.634750 130.0
18.644750 131.0
18.654750 154.0
18.664750 140.0
18.674750 132.0
18.684750 157.0
18.694750 135.0
18.704750 140.0
18.714750 139.0
18.724750 139.0
18.734750 159.0
18.744750 153.0
18.754750 149.0
18.764750 117.0
18.774750 143.0
18.784750 125.0
18.794750 134.0
18.804750 129.0
18.814750 126.0
18.824750 100.0
18.834750 143.0
18.844750 154.0
18.854750 143.0
18.864750 119.0
18.874750 107.0
18.884750 130.0
18.894750 121.0
18.904750 121.0
18.914750 135.0
18.924750 111.0
18.934750 117.0
18.944750 125.0
18.954750 110.0
18.964750 104.0
18.974750 113.0
18.984750 96.0
18.994750 101.0
19.004750 101.0
19.014750 95.0
19.024750 109.0
19.034750 91.0
19.044750 98.0
19.054750 78.0
19.064750 102.0
19.074750 113.0
19.084750 106.0
19.094750 81.0
19.104750 96.0
19.114750 110.0
19.124750 86.0
19.134750 90.0
19.144750 101.0
19.154750 83.0
19.164750 67.0
19.174750 85.0
19.184750 85.0
19.194750 87.0
19.204750 91.0
19.214750 87.0
19.224750 95.0
19.234750 97.0
19.244750 96.0
19.254750 88.0
19.264750 102.0
19.274750 88.0
19.284750 87.0
19.294750 89.0
19.304750 104.0
19.314750 94.0
19.324750 72.0
19.334750 105.0
19.344750 86.0
19.354750 87.0
19.364750 81.0
19.374750 75.0
19.384750 90.0
19.394750 102.0
19.404750 100.0
19.414750 104.0
19.424750 107.0
19.434750 120.0
19.444750 108.0
19.454750 107.0
19.464750 113.0
19.474750 118.0
19.484750 122.0
19.494750 132.0
19.504750 113.0
19.514750 128.0
19.524750 131.0
19.534750 142.0
19.544750 126.0
19.554750 135.0
19.564750 133.0
19.574750 177.0
19.584750 169.0
19.594750 152.0
19.604750 143.0
19.614750 171.0
19.624750 206.0
19.634750 186.0
19.644750 169.0
19.654750 179.0
19.664750 181.0
19.674750 200.0
19.684750 171.0
19.694750 194.0
19.704750 188.0
19.714750 209.0
19.724750 254.0
19.734750 195.0
19.744750 181.0
19.754750 213.0
19.764750 215.0
19.774750 197.0
19.784750 237.0
19.794750 197.0
19.804750 217.0
19.814750 226.0
19.824750 229.0
19.834750 212.0
19.844750 232.0
19.854750 216.0
19.864750 209.0
19.874750 200.0
19.884750 224.0
19.894750 241.0
19.904750 228.0
19.914750 218.0
19.924750 211.0
19.934750 223.0
19.944750 203.0
19.954750 205.0
19.964750 202.0
19.974750 199.0
19.984750 183.0
19.994750 173.0
20.004750 197.0
20.014750 213.0
20.024750 171.0
20.034750 204.0
20.044750 162.0
20.054750 206.0
20.064750 169.0
20.074750 190.0
20.084750 185.0
20.094750 186.0
20.104750 195.0
20.114750 204.0
20.124750 163.0
20.134750 141.0
20.144750 152.0
20.154750 149.0
20.164750 146.0
20.174750 141.0
20.184750 142.0
20.194750 150.0
20.204750 149.0
20.214750 138.0
20.224750 138.0
20.234750 115.0
20.244750 110.0
20.254750 119.0
20.264750 97.0
20.274750 107.0
20.284750 105.0
20.294750 126.0
20.304750 97.0
20.314750 119.0
20.324750 109.0
20.334750 85.0
20.344750 74.0
20.354750 70.0
20.364750 87.0
20.374750 75.0
20.384750 80.0
20.394750 68.0
20.404750 69.0
20.414750 72.0
20.424750 70.0
20.434750 72.0
20.444750 62.0
20.454750 54.0
20.464750 58.0
20.474750 56.0
20.484750 38.0
20.494750 58.0
20.504750 48.0
20.514750 45.0
20.524750 44.0
20.534750 45.0
20.544750 34.0
20.554750 33.0
20.564750 26.0
20.574750 29.0
20.584750 27.0
20.594750 29.0
20.604750 24.0
20.614750 23.0
20.624750 19.0
20.634750 31.0
20.644750 16.0
20.654750 18.0
20.664750 23.0
20.674750 27.0
20.684750 20.0
20.694750 17.0
20.704750 17.0
20.714750 10.0
20.724750 15.0
20.734750 15.0
20.744750 17.0
20.754750 13.0
20.764750 11.0
20.774750 19.0
20.784750 11.0
20.794750 11.0
20.804750 11.0
20.814750 7.0
20.824750 11.0
20.834750 5.0
20.844750 14.0
20.854750 9.0
20.864750 12.0
20.874750 17.0
20.884750 6.0
20.894750 13.0
20.904750 4.0
20.914750 8.0
20.924750 7.0
20.934750 4.0
20.944750 9.0
20.954750 6.0
20.964750 11.0
20.974750 2.0
20.984750 4.0
20.994750 8.0
21.004750 4.0
21.014750 7.0
21.024750 6.0
21.034750 10.0
21.044750 5.0
21.054750 4.0
21.064750 3.0
21.074750 1.0
21.084750 0.0
21.094750 2.0
21.104750 1.0
21.114750 8.0
21.124750 6.0
21.134750 1.0
21.144750 9.0
21.154750 2.0
21.164750 1.0
21.174750 7.0
21.184750 5.0
21.194750 4.0
21.204750 1.0
21.214750 5.0
21.224750 5.0
21.234750 2.0
21.244750 5.0
21.254750 1.0
21.264750 2.0
21.274750 2.0
21.284750 7.0
21.294750 3.0
21.304750 4.0
21.314750 0.0
21.324750 1.0
21.334750 2.0
21.344750 5.0
21.354750 1.0
21.364750 4.0
21.374750 8.0
21.384750 1.0
21.394750 3.0
21.404750 2.0
21.414750 3.0
21.424750 1.0
21.434750 2.0
21.444750 1.0
21.454750 7.0
21.464750 2.0
21.474750 6.0
21.484750 8.0
21.494750 3.0
21.504750 9.0
21.514750 11.0
21.524750 11.0
21.534750 11.0
21.544750 19.0
21.554750 21.0
21.564750 26.0
21.574750 22.0
21.584750 16.0
21.594750 21.0
21.604750 21.0
21.614750 23.0
21.624750 26.0
21.634750 19.0
21.644750 26.0
21.654750 23.0
21.664750 21.0
21.674750 27.0
21.684750 28.0
21.694750 31.0
21.704750 27.0
21.714750 28.0
21.724750 23.0
21.734750 25.0
21.744750 21.0
21.754750 32.0
21.764750 28.0
21.774750 31.0
21.784750 26.0
21.794750 24.0
21.804750 23.0
21.814750 18.0
21.824750 25.0
21.834750 16.0
21.844750 28.0
21.854750 19.0
21.864750 15.0
21.874750 30.0
21.884750 23.0
